[Header]
Application Name	LabSolutions
Version	5.71 SP1
Data File Name	C:\LabSolutions\Data\LC-1\ikeda\20190812\‰–”Z“x•Ê005.lcd
Output Date	2019/08/13
Output Time	18:42:06

[Configuration]
Instrument Name	LC-1_PDA
Instrument #	1
Line #	1
# of Detectors	1
Detector ID	PDA
Detector Name	PDA
# of Channels	1

[Peak Table(PDA-Ch1)]
# of Peaks	42
Peak#	R.Time	I.Time	F.Time	Area	Height	A/H	Conc.	Mark	ID#	Name	k'	Plate #	Plate Ht.	Tailing	Resolution	Sep.Factor	Area Ratio	Height Ratio	Conc. %	Norm Conc.
1	1.832	0.021	1.984	97755	1408	69.440	4.502	   			0.000	13	11838.162	0.000	0.000	0.000	0	0	0.000	0.000
2	2.163	1.984	2.240	26521	3970	6.680	1.221	 V 			0.181	2580	58.130	0.000	0.297	0.000	0	0	0.000	0.000
3	2.307	2.240	2.368	10887	2428	4.484	0.501	   			0.260	4623	32.444	0.000	0.946	1.438	0	0	0.000	0.000
4	2.421	2.368	2.560	6165	954	6.461	0.284	 V 			0.322	1227	122.201	0.000	0.551	1.239	0	0	0.000	0.000
5	5.164	4.949	5.291	7045	579	12.165	0.324	   			1.820	1361	110.175	0.000	6.561	5.655	0	0	0.000	0.000
6	5.400	5.291	5.781	11592	625	18.541	0.534	 V 			1.948	961	156.051	0.000	0.375	1.071	0	0	0.000	0.000
7	5.998	5.781	6.219	11402	620	18.379	0.525	 V 			2.275	1228	122.185	0.000	0.866	1.168	0	0	0.000	0.000
8	6.409	6.219	6.624	31814	1803	17.643	1.465	 V 			2.499	1484	101.051	0.000	0.608	1.099	0	0	0.000	0.000
9	6.820	6.624	7.243	141437	8501	16.638	6.514	 V 			2.723	3644	41.161	0.000	0.736	1.090	0	0	0.000	0.000
10	7.558	7.243	7.925	674886	43638	15.466	31.084	 V 			3.127	5208	28.804	0.000	1.697	1.148	0	0	0.000	0.000
11	8.028	7.925	8.683	78890	4524	17.437	3.633	 V 			3.383	660	227.374	0.000	0.563	1.082	0	0	0.000	0.000
12	8.911	8.683	9.035	11478	809	14.192	0.529	 V 			3.865	4908	30.563	0.000	1.004	1.143	0	0	0.000	0.000
13	9.266	9.035	9.568	327666	23387	14.010	15.092	 V 			4.059	9476	15.829	0.000	0.798	1.050	0	0	0.000	0.000
14	9.696	9.568	10.251	52223	3700	14.114	2.405	 V 			4.294	7773	19.298	0.000	1.048	1.058	0	0	0.000	0.000
15	10.592	10.379	10.741	3234	236	13.683	0.149	   			4.783	5750	26.087	0.000	1.794	1.114	0	0	0.000	0.000
16	11.097	10.741	11.509	141899	9991	14.203	6.536	 V 			5.059	14776	10.151	1.183	1.094	1.058	0	0	0.000	0.000
17	11.819	11.509	11.989	20938	1399	14.964	0.964	 V 			5.453	14459	10.374	0.000	1.903	1.078	0	0	0.000	0.000
18	12.138	11.989	12.416	16314	1275	12.796	0.751	 V 			5.627	16499	9.091	0.000	0.828	1.032	0	0	0.000	0.000
19	12.696	12.416	12.949	7152	580	12.323	0.329	   			5.931	21982	6.824	0.895	1.548	1.054	0	0	0.000	0.000
20	13.154	12.960	13.419	3861	327	11.800	0.178	   			6.182	24062	6.234	1.087	1.345	1.042	0	0	0.000	0.000
21	14.215	13.589	14.805	203417	16100	12.635	9.369	   			6.761	30620	4.899	1.104	3.194	1.094	0	0	0.000	0.000
22	15.483	15.211	15.680	15289	1233	12.401	0.704	   			7.453	33655	4.457	0.000	3.828	1.102	0	0	0.000	0.000
23	15.795	15.680	15.872	2782	296	9.411	0.128	 V 			7.624	15875	9.449	0.000	0.745	1.023	0	0	0.000	0.000
24	16.027	15.872	16.181	9552	796	11.993	0.440	 V 			7.750	32593	4.602	0.000	0.542	1.017	0	0	0.000	0.000
25	16.382	16.181	16.587	30636	2761	11.095	1.411	 V 			7.944	47289	3.172	0.000	1.081	1.025	0	0	0.000	0.000
26	16.746	16.587	17.013	8553	657	13.017	0.394	 V 			8.143	31726	4.728	0.000	1.075	1.025	0	0	0.000	0.000
27	17.505	17.237	17.643	2018	178	11.326	0.093	   			8.557	50148	2.991	0.785	2.205	1.051	0	0	0.000	0.000
28	18.038	17.856	18.187	2881	257	11.222	0.133	   			8.848	42642	3.518	0.000	1.608	1.034	0	0	0.000	0.000
29	18.421	18.187	18.507	7980	672	11.879	0.368	 V 			9.057	4764	31.489	0.000	0.542	1.024	0	0	0.000	0.000
30	18.649	18.507	18.880	17443	1531	11.392	0.803	 V 			9.182	46768	3.207	0.000	0.322	1.014	0	0	0.000	0.000
31	19.061	18.901	19.157	2242	207	10.837	0.103	   			9.407	0	0.000	0.000	0.000	1.025	0	0	0.000	0.000
32	19.357	19.157	19.861	26865	2098	12.802	1.237	 V 			9.569	62113	2.415	0.000	0.000	1.017	0	0	0.000	0.000
33	20.085	19.947	20.203	1280	113	11.378	0.059	   			9.966	5217	28.754	0.000	1.023	1.042	0	0	0.000	0.000
34	20.265	20.203	20.437	1465	174	8.422	0.067	 V 			10.064	82813	1.811	0.000	0.258	1.010	0	0	0.000	0.000
35	20.897	20.704	21.109	2505	251	9.974	0.115	   			10.409	83001	1.807	1.010	2.209	1.034	0	0	0.000	0.000
36	21.433	21.120	21.643	5563	422	13.177	0.256	   			10.702	55796	2.688	0.797	1.643	1.028	0	0	0.000	0.000
37	22.001	21.643	22.261	119696	11523	10.387	5.513	   			11.012	95862	1.565	0.921	1.754	1.029	0	0	0.000	0.000
38	22.469	22.261	22.656	5383	484	11.123	0.248	   			11.267	76853	1.952	0.947	1.539	1.023	0	0	0.000	0.000
39	23.011	22.763	23.307	10562	972	10.867	0.486	   			11.563	96391	1.556	0.975	1.746	1.026	0	0	0.000	0.000
40	27.715	27.520	27.979	2816	240	11.755	0.130	   			14.131	117872	1.273	1.150	15.190	1.222	0	0	0.000	0.000
41	29.506	29.355	29.728	1624	173	9.405	0.075	   			15.110	217886	0.688	1.038	6.223	1.069	0	0	0.000	0.000
42	44.884	44.491	44.960	7482	274	27.307	0.345	   			23.505	168492	0.890	0.599	44.557	1.556	0	0	0.000	0.000

